,CustomerID,frequency,monetary_value,recency
0,12346.0,2,0.0,325
1,12347.0,182,4310.0,1
2,12348.0,31,1797.24,74
3,12349.0,73,1757.55,18
4,12350.0,17,334.4,309
5,12352.0,95,1545.41,35
6,12353.0,4,89.0,203
7,12354.0,58,1079.4,231
8,12355.0,13,459.4,213
9,12356.0,59,2811.43,22
10,12357.0,131,6207.67,32
11,12358.0,19,1168.06,1
12,12359.0,254,6245.53,7
13,12360.0,129,2662.06,51
14,12361.0,10,189.9,286
15,12362.0,274,5154.58,2
16,12363.0,23,552.0,109
17,12364.0,85,1313.1,7
18,12365.0,23,320.69,290
19,12367.0,11,168.9,3
20,12370.0,167,3545.69,50
21,12371.0,63,1887.96,44
22,12372.0,52,1298.04,71
23,12373.0,14,364.6,310
24,12374.0,33,742.9300000000001,24
25,12375.0,18,455.42,2
26,12377.0,77,1628.12,314
27,12378.0,219,4008.62,129
28,12379.0,41,850.29,81
29,12380.0,105,2720.56,21
30,12381.0,91,1803.96,4
31,12383.0,100,1839.31,184
32,12384.0,30,566.16,28
33,12386.0,10,401.9,337
34,12388.0,100,2780.66,15
35,12390.0,32,549.84,79
36,12391.0,100,460.89,21
37,12393.0,64,1582.6000000000001,71
38,12394.0,27,1272.48,63
39,12395.0,159,2998.28,15
40,12397.0,126,2409.9,35
41,12398.0,85,1635.6599999999999,45
42,12399.0,59,1108.65,118
43,12401.0,5,84.3,302
44,12402.0,11,225.6,322
45,12403.0,6,409.7,49
46,12405.0,54,1710.39,148
47,12406.0,108,3280.75,21
48,12407.0,77,1708.1200000000001,49
49,12408.0,113,2842.57,32
50,12409.0,114,11056.93,78
51,12410.0,28,681.0799999999999,300
52,12412.0,61,1226.88,74
53,12413.0,40,694.15,66
54,12414.0,18,562.41,216
56,12417.0,198,3578.8,2
57,12418.0,34,668.58,112
58,12420.0,29,600.39,63
59,12421.0,46,806.27,15
60,12422.0,39,803.5600000000001,95
61,12423.0,126,1849.11,0
62,12424.0,30,1760.96,162
63,12425.0,36,777.2,77
64,12426.0,30,582.73,194
65,12427.0,35,708.37,11
66,12428.0,300,7877.2,25
67,12429.0,97,3750.4,8
68,12430.0,11,256.4,42
69,12431.0,240,6416.39,35
70,12432.0,108,5059.32,42
71,12433.0,420,13375.87,0
72,12434.0,54,765.19,84
73,12435.0,36,7829.89,79
74,12436.0,16,509.01,99
75,12437.0,201,4896.66,1
76,12438.0,98,2906.85,13
77,12441.0,11,173.55,366
78,12442.0,12,172.06,2
79,12444.0,177,5005.46,20
80,12445.0,4,133.4,21
81,12446.0,58,1002.3100000000001,57
82,12447.0,26,476.49,242
83,12448.0,22,449.45,43
84,12449.0,191,4067.29,21
85,12450.0,8,197.88,155
86,12451.0,355,8933.52,10
87,12452.0,23,428.57,16
88,12453.0,43,707.09,133
89,12454.0,30,5.684341886080802e-14,52
90,12455.0,90,2466.86,72
91,12456.0,129,3153.89,43
92,12457.0,68,1917.78,57
93,12458.0,38,947.4,70
94,12461.0,35,826.88,93
95,12462.0,72,1124.01,1
96,12463.0,88,1303.63,45
97,12464.0,29,1212.05,9
98,12465.0,51,733.89,7
99,12468.0,40,724.0400000000001,142
101,12472.0,391,6229.48,30
102,12473.0,179,2848.23,28
103,12474.0,457,7116.47,16
104,12475.0,36,723.38,53
105,12476.0,264,6546.58,0
106,12477.0,308,13117.01,22
107,12478.0,36,680.99,3
108,12479.0,35,477.3,3
109,12480.0,154,3281.63,27
110,12481.0,218,5590.86,22
111,12483.0,81,2327.13,16
112,12484.0,350,4495.27,32
113,12488.0,55,1298.66,9
114,12489.0,15,334.93,335
115,12490.0,245,5417.93,4
116,12491.0,26,460.40000000000003,38
117,12492.0,20,263.21000000000004,62
118,12493.0,23,416.79,165
119,12494.0,84,1139.3500000000001,9
120,12497.0,14,1043.1,81
121,12498.0,23,403.70000000000005,20
122,12500.0,65,4206.27,22
123,12501.0,160,2089.68,314
124,12502.0,147,3723.87,95
125,12503.0,1,-1126.0,337
126,12504.0,15,114.0,17
127,12505.0,1,-4.5,300
128,12506.0,23,73.5,232
129,12507.0,23,1258.06,133
130,12508.0,69,398.27,25
131,12509.0,7,176.5,283
132,12510.0,33,982.5699999999999,142
133,12512.0,34,138.03,65
134,12513.0,36,586.79,84
135,12514.0,51,1017.68,266
136,12515.0,16,383.7,352
137,12516.0,26,1312.06,77
138,12517.0,286,2464.89,27
139,12518.0,124,2056.89,0
140,12519.0,18,340.84,63
141,12520.0,155,2582.51,78
142,12521.0,38,599.68,142
143,12522.0,12,192.72,38
144,12523.0,110,1745.57,1
145,12524.0,144,4485.72,8
146,12526.0,71,1316.66,0
147,12527.0,18,348.71000000000004,81
148,12528.0,95,1922.28,8
149,12530.0,68,1623.63,59
150,12531.0,17,125.22,14
151,12532.0,16,349.83000000000004,29
152,12534.0,63,1089.18,130
153,12535.0,34,716.35,91
154,12536.0,273,4106.82,7
155,12538.0,21,363.95,28
156,12539.0,274,3852.5,21
157,12540.0,481,13309.039999999999,19
158,12541.0,52,981.18,29
159,12544.0,20,355.7,29
160,12545.0,50,1000.39,74
161,12546.0,70,1141.5,46
162,12547.0,8,207.79999999999998,197
163,12548.0,5,95.19999999999999,165
164,12550.0,57,964.83,78
165,12551.0,10,168.0,357
166,12552.0,20,437.82,38
167,12553.0,196,3652.25,7
168,12556.0,121,603.71,49
169,12557.0,33,11990.960000000001,15
170,12558.0,22,1.0658141036401503e-14,1
171,12559.0,22,536.21,310
172,12560.0,111,2101.39,4
173,12561.0,16,238.85,302
174,12562.0,168,3781.7400000000002,7
175,12564.0,21,456.9,260
176,12565.0,10,131.17,281
177,12566.0,20,346.7,72
178,12567.0,463,9114.94,22
179,12569.0,191,4064.9900000000002,1
180,12571.0,34,519.61,39
181,12572.0,62,1004.72,8
182,12573.0,28,160.54000000000002,226
183,12574.0,11,218.45,315
184,12576.0,89,1306.98,35
185,12577.0,148,595.4,34
186,12578.0,120,2753.36,20
187,12579.0,31,410.72,72
188,12580.0,24,415.7,246
189,12581.0,15,197.71,39
190,12582.0,22,511.36,238
191,12583.0,251,7187.34,2
192,12584.0,126,1893.95,3
193,12585.0,97,1982.81,233
194,12586.0,12,179.94000000000003,16
195,12587.0,4,144.0,7
196,12588.0,10,214.89999999999998,38
197,12589.0,35,646.68,28
198,12590.0,70,9861.38,189
199,12591.0,26,452.84999999999997,316
200,12592.0,18,437.6,91
201,12593.0,21,418.09999999999997,108
202,12594.0,119,3320.2200000000003,37
203,12596.0,27,618.27,50
204,12597.0,214,3683.13,18
205,12598.0,133,3002.68,9
206,12599.0,62,1032.58,28
207,12600.0,65,2581.04,28
208,12601.0,29,569.5600000000001,189
209,12602.0,12,153.12,58
210,12603.0,3,739.1999999999999,21
211,12604.0,16,254.18,78
212,12605.0,3,-7.5,364
213,12607.0,202,3.552713678800501e-15,57
214,12609.0,60,1126.85,77
215,12610.0,111,2057.99,22
216,12611.0,65,1193.32,51
217,12612.0,21,643.59,57
218,12613.0,163,3218.98,30
219,12614.0,20,315.6,277
220,12615.0,105,2291.19,1
221,12616.0,36,657.25,84
222,12617.0,42,355.53,28
223,12618.0,11,177.31,21
224,12619.0,95,3214.81,15
225,12620.0,92,1339.41,14
226,12621.0,474,13612.07,1
227,12622.0,11,180.1,231
228,12623.0,18,305.1,275
229,12624.0,38,641.13,105
230,12625.0,91,2614.32,211
231,12626.0,307,6388.35,22
232,12627.0,230,4478.53,10
233,12628.0,43,769.61,3
234,12630.0,64,1270.88,9
235,12631.0,31,640.5,56
236,12633.0,103,2140.63,58
237,12635.0,101,1689.18,89
238,12637.0,394,5953.25,66
239,12638.0,39,671.69,32
240,12639.0,22,486.1,238
241,12640.0,53,1174.58,23
242,12641.0,10,185.9,114
243,12642.0,47,1013.26,24
244,12643.0,24,3344.64,127
245,12644.0,31,477.91,129
246,12645.0,74,1755.38,33
247,12646.0,45,1346.97,4
248,12647.0,128,3669.92,21
249,12648.0,21,318.05,154
250,12649.0,33,603.71,106
251,12650.0,20,314.44,2
252,12651.0,9,114.0,334
253,12652.0,51,914.53,321
254,12653.0,43,2209.85,148
255,12654.0,38,601.98,10
256,12656.0,130,3982.72,16
257,12657.0,56,1152.06,10
258,12658.0,36,686.05,18
259,12659.0,5,91.68,29
260,12660.0,13,245.1,10
261,12662.0,232,3817.08,0
262,12664.0,38,4863.88,7
263,12665.0,4,61.75,324
264,12666.0,2,-227.44,358
265,12667.0,33,620.13,57
266,12668.0,168,3743.18,6
267,12669.0,102,1607.73,150
268,12670.0,94,2986.15,9
269,12672.0,10,225.89999999999998,329
270,12673.0,42,610.52,4
271,12674.0,91,1919.31,11
272,12676.0,45,1331.39,24
274,12679.0,56,1058.67,51
275,12680.0,52,862.81,0
276,12681.0,646,13677.59,14
277,12682.0,525,12288.22,3
278,12683.0,362,8221.09,3
279,12684.0,105,2283.63,7
280,12685.0,157,2863.08,27
281,12686.0,7,89.14,371
282,12688.0,171,4873.8099999999995,113
283,12689.0,72,1247.61,25
284,12690.0,16,389.01,205
285,12691.0,32,1035.8,27
286,12693.0,41,830.96,120
287,12694.0,37,869.67,69
288,12695.0,27,582.1,6
289,12697.0,43,939.02,20
290,12700.0,270,4867.99,7
291,12701.0,53,797.71,79
292,12702.0,12,219.0,19
293,12703.0,22,274.7,63
294,12704.0,90,2220.84,6
295,12705.0,348,6814.24,14
296,12707.0,33,603.42,291
297,12708.0,174,2616.32,29
298,12709.0,257,9294.1,2
299,12710.0,79,1130.57,96
300,12712.0,142,4241.63,22
301,12713.0,38,848.55,0
302,12714.0,259,4708.86,8
303,12715.0,21,353.86,105
304,12716.0,69,1053.49,3
305,12717.0,56,980.98,150
306,12718.0,19,238.25,70
307,12719.0,42,608.1,4
308,12720.0,359,5713.28,2
309,12721.0,164,2628.98,31
310,12722.0,57,904.33,84
311,12723.0,69,725.07,3
312,12724.0,53,1031.41,4
313,12725.0,24,427.8,370
314,12726.0,124,2609.1,27
315,12727.0,141,3947.7,10
316,12728.0,46,836.33,70
317,12729.0,26,453.01,113
319,12732.0,12,236.26000000000002,179
320,12733.0,22,383.95,233
321,12734.0,4,110.39999999999999,352
322,12735.0,43,779.5699999999999,314
323,12736.0,4,234.0,332
324,12738.0,11,155.35,371
325,12739.0,38,1013.04,77
326,12740.0,27,427.6,63
327,12743.0,134,546.43,133
328,12744.0,229,9120.39,51
329,12747.0,103,4196.01,1
331,12749.0,231,3868.2,3
332,12750.0,15,275.88,128
333,12752.0,53,4366.78,80
335,12754.0,65,2949.12,235
336,12755.0,6,2203.2,249
337,12756.0,4,112.07999999999998,86
338,12757.0,377,4227.7,15
339,12758.0,97,2791.59,116
340,12759.0,95,1531.44,51
341,12762.0,69,1898.52,7
342,12763.0,18,494.08,137
343,12764.0,45,1693.88,316
344,12766.0,310,6989.63,3
345,12769.0,32,1143.6,238
346,12770.0,12,1351.45,210
347,12772.0,55,892.47,59
348,12775.0,67,1351.24,16
349,12778.0,51,804.23,19
350,12779.0,159,3868.7,20
351,12781.0,30,707.72,20
352,12782.0,107,2273.32,4
353,12783.0,86,1603.87,1
354,12784.0,59,574.42,8
355,12785.0,15,305.71,2
356,12787.0,20,463.66,9
357,12789.0,4,91.85,64
358,12790.0,21,324.92,191
359,12791.0,2,192.60000000000002,373
360,12792.0,25,400.53999999999996,256
361,12793.0,24,545.48,334
362,12794.0,45,860.41,52
363,12795.0,14,430.48,18
364,12797.0,17,194.18,359
365,12798.0,8,6977.04,9
366,12802.0,26,412.58,183
367,12808.0,28,483.65000000000003,36
368,12809.0,26,484.36,167
369,12811.0,31,514.85,260
370,12812.0,15,229.64000000000001,44
371,12814.0,2,125.92,101
372,12815.0,47,1063.46,147
373,12816.0,29,572.2,95
374,12817.0,4,166.04,280
375,12818.0,16,1517.88,177
376,12820.0,59,942.34,2
377,12821.0,6,92.72,213
378,12822.0,47,918.98,70
379,12823.0,5,1759.5,74
380,12824.0,25,397.12,59
381,12826.0,94,1468.1200000000001,2
382,12827.0,25,430.15000000000003,5
383,12828.0,56,1018.71,2
384,12829.0,12,253.05,321
385,12830.0,39,6748.4,37
386,12831.0,9,215.05,261
387,12832.0,27,383.03,31
388,12833.0,24,417.38,144
389,12834.0,18,312.38,282
390,12836.0,175,2612.86,58
391,12837.0,12,134.1,172
392,12838.0,123,683.13,33
393,12839.0,316,5583.62,2
394,12840.0,116,2714.27,143
395,12841.0,439,3876.4,4
396,12842.0,34,1118.99,69
397,12843.0,108,1680.76,65
398,12844.0,52,325.96000000000004,28
399,12845.0,27,354.09,266
400,12847.0,91,871.54,21
401,12849.0,51,1050.8899999999999,30
402,12851.0,50,135.18,96
403,12852.0,20,299.75,289
404,12853.0,84,1881.7,107
405,12854.0,115,1289.15,78
406,12855.0,3,38.1,372
407,12856.0,317,2162.68,7
408,12857.0,46,1106.4,210
409,12863.0,6,504.2,51
410,12864.0,3,147.12,137
411,12865.0,96,1548.07,25
412,12866.0,26,559.12,282
413,12867.0,551,3986.22,25
414,12868.0,107,1607.0600000000002,185
415,12870.0,2,-14.899999999999999,365
416,12871.0,11,380.64,83
417,12872.0,66,599.97,326
418,12873.0,4,374.0,281
419,12875.0,2,343.2300000000001,142
420,12876.0,85,2218.02,57
421,12877.0,154,1535.77,3
422,12878.0,49,841.64,17
423,12879.0,12,552.5699999999999,44
424,12881.0,7,298.0,275
425,12882.0,13,1463.04,8
426,12883.0,42,703.47,24
427,12884.0,7,309.05,87
428,12885.0,72,1158.27,62
429,12886.0,86,1351.09,67
430,12888.0,7,313.77,213
431,12890.0,82,380.46999999999997,23
432,12891.0,3,331.0,185
433,12893.0,34,188.14,30
434,12895.0,24,347.3,41
435,12897.0,4,216.5,204
437,12902.0,10,138.68,264
438,12904.0,72,509.58,17
439,12906.0,63,2919.81,11
440,12908.0,4,246.0,58
441,12909.0,96,2128.83,39
442,12910.0,75,3075.04,22
443,12912.0,24,1662.3,2
444,12913.0,50,2483.63,4
445,12915.0,22,363.65,148
446,12916.0,109,2982.35,138
447,12917.0,2,594.0,127
448,12919.0,52,1301.44,7
449,12920.0,28,164.23,16
451,12922.0,28,405.38,160
452,12923.0,29,176.97,63
453,12924.0,31,929.95,87
454,12925.0,45,694.05,4
455,12928.0,84,2062.7000000000003,34
456,12929.0,9,105.1,121
457,12930.0,27,409.9,77
459,12933.0,107,606.28,23
460,12935.0,130,2156.45,1
461,12936.0,63,1012.9,16
462,12937.0,120,1504.27,14
463,12938.0,9,114.14,25
464,12939.0,47,11581.8,63
465,12940.0,103,876.29,45
466,12942.0,75,683.9,130
467,12943.0,1,-3.75,300
468,12944.0,30,604.51,35
469,12945.0,23,462.95,287
470,12947.0,103,1407.29,143
471,12948.0,118,2053.7,15
472,12949.0,219,4143.02,30
473,12950.0,23,1843.0,1
474,12951.0,65,1042.07,8
475,12952.0,80,1382.8400000000001,5
476,12953.0,17,329.85,9
477,12955.0,183,4734.26,0
478,12956.0,19,108.07,305
479,12957.0,244,3979.04,3
480,12962.0,16,266.39,6
481,12963.0,96,1841.03,7
482,12965.0,109,771.91,88
483,12966.0,10,160.18,9
484,12967.0,33,1194.75,2
485,12968.0,5,135.95,111
486,12970.0,151,452.24,6
487,12971.0,308,10930.26,3
488,12974.0,8,144.8,197
489,12976.0,22,738.6,211
490,12977.0,9,39.239999999999995,155
491,12980.0,24,7092.06,155
492,12981.0,20,372.21999999999997,29
493,12982.0,34,377.2,239
494,12984.0,4,97.5,18
495,12985.0,78,1215.6200000000001,0
496,12987.0,30,545.0,73
497,12988.0,92,535.32,291
498,12989.0,68,6854.51,2
499,12990.0,13,409.5,30
500,12991.0,31,503.76,22
501,12993.0,27,414.76,22
502,12994.0,73,902.22,3
503,12995.0,5,200.72,77
504,12997.0,67,1197.94,21
505,12999.0,28,455.88,195
506,13000.0,31,534.85,106
507,13001.0,342,9797.92,3
508,13002.0,7,120.94999999999999,317
509,13003.0,6,149.05,105
510,13004.0,409,5613.43,11
511,13005.0,29,468.95,173
512,13006.0,4,81.57,55
513,13008.0,15,178.46999999999997,322
514,13011.0,3,50.550000000000004,371
515,13012.0,107,1311.6200000000001,8
516,13013.0,222,4786.99,0
517,13014.0,124,3365.43,2
518,13015.0,176,3346.28,52
519,13016.0,47,789.89,72
520,13017.0,1,204.0,6
521,13018.0,459,7272.75,15
522,13021.0,134,2584.4,3
523,13023.0,40,689.9,63
524,13026.0,43,936.15,0
525,13027.0,26,6912.0,113
526,13028.0,47,659.68,22
527,13029.0,10,1247.5,30
528,13030.0,99,799.48,10
529,13032.0,75,996.52,38
530,13033.0,11,190.55,356
531,13034.0,37,642.77,54
532,13035.0,30,886.63,57
533,13037.0,48,881.07,137
534,13038.0,28,908.46,79
535,13040.0,43,676.99,8
536,13043.0,14,471.57,253
537,13044.0,33,560.47,290
538,13045.0,18,305.28000000000003,98
539,13046.0,35,629.31,30
540,13047.0,196,3079.1,31
541,13048.0,137,1805.91,13
542,13049.0,14,656.6800000000001,63
543,13050.0,422,5684.61,8
544,13052.0,18,348.15000000000003,211
545,13055.0,78,1201.96,63
546,13058.0,8,271.40000000000003,24
547,13059.0,8,183.4,249
548,13060.0,15,307.53,253
549,13061.0,10,248.61,71
550,13062.0,11,346.98,190
551,13064.0,69,1119.49,12
552,13065.0,14,205.86,372
553,13066.0,49,430.9,23
554,13067.0,15,115.46000000000001,81
555,13068.0,2,344.0,9
556,13069.0,470,3717.82,0
557,13070.0,9,228.8,191
558,13072.0,7,177.15,266
559,13075.0,22,919.61,129
560,13077.0,112,729.27,0
561,13078.0,380,12432.28,0
562,13079.0,6,220.10000000000002,3
563,13080.0,6,58.08,178
565,13082.0,75,3595.48,125
566,13083.0,18,303.75,3
567,13085.0,29,272.38,157
569,13090.0,161,8689.39,8
570,13091.0,24,319.82,20
571,13092.0,26,459.83,70
572,13093.0,170,7741.47,266
573,13094.0,30,1708.8600000000001,20
574,13095.0,6,74.39999999999999,70
575,13097.0,437,5893.32,32
577,13099.0,1,207.35999999999999,98
578,13101.0,8,101.19,233
579,13102.0,310,6336.29,0
580,13103.0,8,243.94,39
581,13104.0,20,1098.48,2
582,13106.0,2,59.5,128
583,13107.0,60,1524.07,43
584,13108.0,10,350.06,372
585,13109.0,50,766.84,2
586,13110.0,146,1452.8700000000001,30
587,13113.0,280,10510.0,0
588,13115.0,132,2205.63,8
589,13116.0,31,485.19,116
590,13117.0,76,984.91,21
591,13118.0,82,1125.0,19
592,13120.0,1,30.599999999999998,238
593,13121.0,53,254.73,268
594,13122.0,55,922.39,93
595,13124.0,235,3866.33,89
596,13126.0,142,2056.29,4
597,13127.0,15,259.17,77
598,13130.0,2,64.0,93
599,13131.0,46,1039.3,22
600,13132.0,3,77.3,261
601,13133.0,7,109.8,273
602,13134.0,105,1740.63,72
603,13135.0,1,3096.0,196
604,13136.0,139,2545.38,49
605,13137.0,705,3605.08,10
606,13138.0,63,962.39,21
607,13139.0,174,5055.79,15
608,13140.0,46,423.72,107
609,13141.0,136,2385.8,84
610,13142.0,23,307.09,18
611,13144.0,3,110.95,332
612,13145.0,7,614.77,39
613,13146.0,17,228.91,25
614,13147.0,4,712.8000000000001,9
615,13148.0,347,3348.48,28
616,13149.0,86,1676.06,13
617,13151.0,75,1250.3700000000001,202
618,13153.0,15,486.22,5
619,13154.0,1,-611.86,143
620,13155.0,85,971.76,32
621,13157.0,89,1721.57,48
622,13158.0,79,1201.06,94
623,13159.0,122,1379.75,8
624,13160.0,4,91.8,21
625,13161.0,8,112.75,312
626,13162.0,82,1644.99,121
627,13165.0,42,1021.48,45
628,13166.0,42,414.7,281
629,13167.0,65,791.33,18
630,13168.0,133,1310.14,35
631,13169.0,13,712.88,63
632,13170.0,32,116.00999999999999,26
633,13171.0,48,426.81,7
634,13173.0,43,353.65,3
635,13174.0,314,2817.03,15
636,13176.0,72,492.84,45
637,13177.0,17,282.45,64
638,13178.0,265,5725.47,25
639,13182.0,11,121.18,44
640,13183.0,94,3957.78,7
641,13184.0,183,1648.79,14
642,13185.0,1,71.4,267
643,13186.0,84,1539.69,39
644,13187.0,37,236.02,336
645,13188.0,2,114.60000000000001,10
646,13189.0,29,260.68,18
647,13192.0,63,911.94,94
648,13193.0,29,117.88,60
649,13194.0,3,60.7,135
650,13196.0,110,1797.78,10
651,13198.0,229,3384.09,9
652,13199.0,120,9803.96,3
653,13200.0,46,870.09,18
654,13203.0,57,869.46,9
655,13207.0,8,250.26000000000002,14
656,13208.0,150,1205.9,58
657,13209.0,329,5820.16,29
658,13210.0,22,353.48,93
659,13211.0,56,1197.42,9
660,13212.0,143,780.58,8
661,13213.0,92,1518.43,56
662,13216.0,5,333.74,267
663,13217.0,7,133.62,121
664,13218.0,5,62.63999999999999,126
665,13220.0,21,819.2900000000001,77
666,13221.0,66,847.41,239
667,13223.0,5,163.20000000000002,199
668,13224.0,109,2150.85,59
669,13225.0,34,6083.04,2
670,13226.0,16,108.21000000000001,272
671,13227.0,9,257.7,201
672,13228.0,2,358.0,80
673,13229.0,10,160.95,225
674,13230.0,612,2763.41,3
675,13232.0,207,1357.6,12
676,13233.0,43,605.12,73
677,13235.0,59,101.17000000000007,211
678,13236.0,39,727.27,24
679,13238.0,32,680.83,10
680,13239.0,22,329.56,261
681,13240.0,67,663.65,95
682,13242.0,13,270.40000000000003,111
683,13243.0,58,600.07,202
684,13244.0,27,121.74000000000001,92
685,13245.0,16,430.5,50
686,13246.0,143,1922.1,17
687,13247.0,25,501.12,17
688,13248.0,26,465.68,124
689,13249.0,23,711.41,91
690,13253.0,36,1030.4,156
691,13255.0,14,390.66,3
692,13256.0,1,0.0,13
693,13258.0,38,698.58,11
694,13259.0,87,292.32,61
695,13260.0,8,557.62,60
696,13261.0,9,944.1,268
697,13262.0,11,200.29,262
699,13265.0,91,2107.66,52
700,13266.0,202,3717.67,10
701,13267.0,224,4404.44,2
702,13268.0,447,3167.64,17
703,13269.0,320,5315.92,0
704,13270.0,1,590.0,365
705,13271.0,101,178.26,36
706,13272.0,15,276.56,30
707,13273.0,16,138.98,112
708,13276.0,30,590.9300000000001,63
709,13277.0,8,258.4,15
710,13278.0,46,542.73,40
711,13279.0,11,126.30000000000001,63
712,13280.0,85,814.86,121
713,13282.0,40,1047.8400000000001,17
714,13283.0,7,93.66,59
715,13284.0,14,196.15,322
716,13285.0,187,2709.12,22
717,13291.0,42,361.11,155
718,13292.0,31,578.9399999999999,38
719,13294.0,54,873.74,189
720,13295.0,11,197.95000000000002,359
721,13296.0,5,87.4,136
722,13297.0,59,2089.85,7
723,13298.0,2,360.0,0
724,13299.0,5,142.5,267
725,13300.0,22,365.29,164
726,13301.0,81,618.09,103
727,13302.0,1,63.75,154
728,13304.0,21,300.42,350
729,13305.0,81,2000.86,3
730,13307.0,1,15.0,119
731,13308.0,57,1367.6100000000001,22
